start,end,ID
0,886.0,1
886,3119.0,2
3119,4653.0,3
4653,6465.0,4
6465,8450.0,5
8450,10005.0,6
10005,11688.0,7
11688,13380.0,8
13380,17575.0,9
17575,19195.0,10
19195,20842.0,11
20842,22803.0,12
22803,24745.0,13
24745,26490.0,14
26490,28238.0,15
28238,,16
